t(s),H2,N2,NH3
1.000000e-15,4.137160e-10,9.443903e-10,1.000000e+00
1.450000e-15,5.998879e-10,1.369356e-09,1.000000e+00
1.900000e-15,7.860594e-10,1.794316e-09,1.000000e+00
2.350000e-15,9.722308e-10,2.219271e-09,1.000000e+00
2.800000e-15,1.158402e-09,2.644219e-09,1.000000e+00
3.250000e-15,1.344573e-09,3.069161e-09,1.000000e+00
3.700000e-15,1.530743e-09,3.494097e-09,1.000000e+00
4.150000e-15,1.716914e-09,3.919028e-09,1.000000e+00
4.600000e-15,1.903084e-09,4.343952e-09,1.000000e+00
5.050000e-15,2.089254e-09,4.768871e-09,1.000000e+00
5.500000e-15,2.275423e-09,5.193783e-09,1.000000e+00
5.950000e-15,2.461593e-09,5.618690e-09,1.000000e+00
6.400000e-15,2.647762e-09,6.043590e-09,1.000000e+00
6.850000e-15,2.833931e-09,6.468485e-09,1.000000e+00
7.300000e-15,3.020099e-09,6.893373e-09,1.000000e+00
7.750000e-15,3.206268e-09,7.318256e-09,1.000000e+00
8.200000e-15,3.392436e-09,7.743133e-09,1.000000e+00
8.650000e-15,3.578604e-09,8.168004e-09,1.000000e+00
9.100000e-15,3.764771e-09,8.592869e-09,1.000000e+00
9.550000e-15,3.950939e-09,9.017728e-09,1.000000e+00
1.000000e-14,4.137106e-09,9.442581e-09,1.000000e+00
1.450000e-14,5.998764e-09,1.369078e-08,1.000000e+00
1.900000e-14,7.860398e-09,1.793839e-08,1.000000e+00
2.350000e-14,9.722007e-09,2.218540e-08,1.000000e+00
2.800000e-14,1.158359e-08,2.643182e-08,1.000000e+00
3.250000e-14,1.344515e-08,3.067764e-08,9.999999e-01
3.700000e-14,1.530668e-08,3.492287e-08,9.999999e-01
4.150000e-14,1.716819e-08,3.916750e-08,9.999999e-01
4.600000e-14,1.902968e-08,4.341154e-08,9.999999e-01
5.050000e-14,2.089114e-08,4.765499e-08,9.999999e-01
5.500000e-14,2.275257e-08,5.189784e-08,9.999999e-01
5.950000e-14,2.461398e-08,5.614009e-08,9.999999e-01
6.400000e-14,2.647537e-08,6.038175e-08,9.999999e-01
6.850000e-14,2.833673e-08,6.462282e-08,9.999999e-01
7.300000e-14,3.019806e-08,6.886329e-08,9.999998e-01
7.750000e-14,3.205937e-08,7.310317e-08,9.999998e-01
8.200000e-14,3.392066e-08,7.734245e-08,9.999998e-01
8.650000e-14,3.578192e-08,8.158114e-08,9.999998e-01
9.100000e-14,3.764315e-08,8.581924e-08,9.999998e-01
9.550000e-14,3.950436e-08,9.005674e-08,9.999998e-01
1.000000e-13,4.136555e-08,9.429365e-08,9.999998e-01
1.450000e-13,5.997603e-08,1.366301e-07,9.999997e-01
1.900000e-13,7.858400e-08,1.789073e-07,9.999995e-01
2.350000e-13,9.718948e-08,2.211253e-07,9.999994e-01
2.800000e-13,1.157925e-07,2.632842e-07,9.999993e-01
3.250000e-13,1.343929e-07,3.053841e-07,9.999992e-01
3.700000e-13,1.529909e-07,3.474250e-07,9.999990e-01
4.150000e-13,1.715864e-07,3.894071e-07,9.999989e-01
4.600000e-13,1.901794e-07,4.313304e-07,9.999988e-01
5.050000e-13,2.087699e-07,4.731950e-07,9.999987e-01
5.500000e-13,2.273579e-07,5.150010e-07,9.999986e-01
5.950000e-13,2.459434e-07,5.567484e-07,9.999984e-01
6.400000e-13,2.645264e-07,5.984375e-07,9.999983e-01
6.850000e-13,2.831069e-07,6.400681e-07,9.999982e-01
7.300000e-13,3.016849e-07,6.816405e-07,9.999981e-01
7.750000e-13,3.202604e-07,7.231547e-07,9.999980e-01
8.200000e-13,3.388335e-07,7.646107e-07,9.999978e-01
8.650000e-13,3.574040e-07,8.060087e-07,9.999977e-01
9.100000e-13,3.759721e-07,8.473488e-07,9.999976e-01
9.550000e-13,3.945376e-07,8.886309e-07,9.999975e-01
1.000000e-12,4.131007e-07,9.298553e-07,9.999974e-01
1.450000e-12,5.985945e-07,1.338938e-06,9.999962e-01
1.900000e-12,7.838399e-07,1.742330e-06,9.999950e-01
2.350000e-12,9.688372e-07,2.140109e-06,9.999938e-01
2.800000e-12,1.153587e-06,2.532355e-06,9.999927e-01
3.250000e-12,1.338090e-06,2.919143e-06,9.999915e-01
3.700000e-12,1.522347e-06,3.300551e-06,9.999904e-01
4.150000e-12,1.706358e-06,3.676652e-06,9.999893e-01
4.600000e-12,1.890123e-06,4.047521e-06,9.999882e-01
5.050000e-12,2.073644e-06,4.413230e-06,9.999871e-01
5.500000e-12,2.256920e-06,4.773852e-06,9.999860e-01
5.950000e-12,2.439952e-06,5.129457e-06,9.999849e-01
6.400000e-12,2.622742e-06,5.480114e-06,9.999838e-01
6.850000e-12,2.805288e-06,5.825893e-06,9.999828e-01
7.300000e-12,2.987592e-06,6.166862e-06,9.999817e-01
7.750000e-12,3.169654e-06,6.503087e-06,9.999807e-01
8.200000e-12,3.351475e-06,6.834634e-06,9.999797e-01
8.650000e-12,3.533055e-06,7.161569e-06,9.999787e-01
9.100000e-12,3.714395e-06,7.483956e-06,9.999777e-01
9.550000e-12,3.895495e-06,7.801857e-06,9.999767e-01
1.000000e-11,4.076356e-06,8.115336e-06,9.999757e-01
1.450000e-11,5.871912e-06,1.102000e-05,9.999663e-01
1.900000e-11,7.644074e-06,1.354496e-05,9.999577e-01
2.350000e-11,9.393317e-06,1.573985e-05,9.999498e-01
2.800000e-11,1.112010e-05,1.764781e-05,9.999425e-01
3.250000e-11,1.282487e-05,1.930636e-05,9.999358e-01
3.700000e-11,1.450807e-05,2.074810e-05,9.999295e-01
4.150000e-11,1.617011e-05,2.200137e-05,9.999237e-01
4.600000e-11,1.781140e-05,2.309080e-05,9.999182e-01
5.050000e-11,1.943235e-05,2.403782e-05,9.999131e-01
5.500000e-11,2.103335e-05,2.486105e-05,9.999083e-01
5.950000e-11,2.261477e-05,2.557665e-05,9.999037e-01
6.400000e-11,2.417699e-05,2.619870e-05,9.998993e-01
6.850000e-11,2.572037e-05,2.673944e-05,9.998951e-01
7.300000e-11,2.724524e-05,2.720948e-05,9.998911e-01
7.750000e-11,2.875197e-05,2.761807e-05,9.998873e-01
8.200000e-11,3.024087e-05,2.797324e-05,9.998836e-01
8.650000e-11,3.171228e-05,2.828198e-05,9.998801e-01
9.100000e-11,3.316651e-05,2.855035e-05,9.998766e-01
9.550000e-11,3.460387e-05,2.878363e-05,9.998733e-01
1.000000e-10,3.602466e-05,2.898641e-05,9.998700e-01
1.450000e-10,4.938258e-05,3.000231e-05,9.998413e-01
1.900000e-10,6.136688e-05,3.025210e-05,9.998168e-01
2.350000e-10,7.218397e-05,3.031317e-05,9.997951e-01
2.800000e-10,8.200013e-05,3.032779e-05,9.997754e-01
3.250000e-10,9.095093e-05,3.033099e-05,9.997575e-01
3.700000e-10,9.914809e-05,3.033141e-05,9.997411e-01
4.150000e-10,1.066846e-04,3.033118e-05,9.997260e-01
4.600000e-10,1.136384e-04,3.033081e-05,9.997121e-01
5.050000e-10,1.200755e-04,3.033044e-05,9.996993e-01
5.500000e-10,1.260522e-04,3.033008e-05,9.996873e-01
5.950000e-10,1.316168e-04,3.032974e-05,9.996762e-01
6.400000e-10,1.368108e-04,3.032943e-05,9.996658e-01
6.850000e-10,1.416703e-04,3.032913e-05,9.996561e-01
7.300000e-10,1.462270e-04,3.032886e-05,9.996470e-01
7.750000e-10,1.505083e-04,3.032860e-05,9.996384e-01
8.200000e-10,1.545386e-04,3.032836e-05,9.996303e-01
8.650000e-10,1.583395e-04,3.032813e-05,9.996227e-01
9.100000e-10,1.619299e-04,3.032791e-05,9.996156e-01
9.550000e-10,1.653269e-04,3.032771e-05,9.996088e-01
1.000000e-09,1.685457e-04,3.032751e-05,9.996023e-01
1.450000e-09,1.933631e-04,3.032603e-05,9.995527e-01
1.900000e-09,2.095848e-04,3.032508e-05,9.995203e-01
2.350000e-09,2.209564e-04,3.032443e-05,9.994975e-01
2.800000e-09,2.293166e-04,3.032396e-05,9.994808e-01
3.250000e-09,2.356775e-04,3.032361e-05,9.994681e-01
3.700000e-09,2.406436e-04,3.032334e-05,9.994581e-01
4.150000e-09,2.445987e-04,3.032314e-05,9.994502e-01
4.600000e-09,2.477988e-04,3.032299e-05,9.994438e-01
5.050000e-09,2.504214e-04,3.032287e-05,9.994386e-01
5.500000e-09,2.525933e-04,3.032278e-05,9.994342e-01
5.950000e-09,2.544076e-04,3.032271e-05,9.994306e-01
6.400000e-09,2.559345e-04,3.032266e-05,9.994276e-01
6.850000e-09,2.572276e-04,3.032262e-05,9.994250e-01
7.300000e-09,2.583286e-04,3.032259e-05,9.994228e-01
7.750000e-09,2.592704e-04,3.032258e-05,9.994209e-01
8.200000e-09,2.600796e-04,3.032257e-05,9.994193e-01
8.650000e-09,2.607773e-04,3.032257e-05,9.994179e-01
9.100000e-09,2.613810e-04,3.032257e-05,9.994167e-01
9.550000e-09,2.619050e-04,3.032258e-05,9.994156e-01
1.000000e-08,2.623612e-04,3.032259e-05,9.994147e-01
1.450000e-08,2.647660e-04,3.032286e-05,9.994099e-01
1.900000e-08,2.655770e-04,3.032322e-05,9.994083e-01
2.350000e-08,2.659788e-04,3.032361e-05,9.994075e-01
2.800000e-08,2.662600e-04,3.032401e-05,9.994069e-01
3.250000e-08,2.664953e-04,3.032441e-05,9.994064e-01
3.700000e-08,2.667050e-04,3.032481e-05,9.994060e-01
4.150000e-08,2.668954e-04,3.032521e-05,9.994057e-01
4.600000e-08,2.670693e-04,3.032561e-05,9.994053e-01
5.050000e-08,2.672284e-04,3.032601e-05,9.994050e-01
5.500000e-08,2.673741e-04,3.032642e-05,9.994047e-01
5.950000e-08,2.675074e-04,3.032682e-05,9.994044e-01
6.400000e-08,2.676295e-04,3.032723e-05,9.994042e-01
6.850000e-08,2.677413e-04,3.032763e-05,9.994040e-01
7.300000e-08,2.678436e-04,3.032804e-05,9.994038e-01
7.750000e-08,2.679374e-04,3.032845e-05,9.994036e-01
8.200000e-08,2.680232e-04,3.032886e-05,9.994034e-01
8.650000e-08,2.681018e-04,3.032927e-05,9.994032e-01
9.100000e-08,2.681738e-04,3.032967e-05,9.994031e-01
9.550000e-08,2.682397e-04,3.033008e-05,9.994030e-01
1.000000e-07,2.683001e-04,3.033049e-05,9.994028e-01
1.450000e-07,2.686851e-04,3.033460e-05,9.994021e-01
1.900000e-07,2.688467e-04,3.033872e-05,9.994018e-01
2.350000e-07,2.689158e-04,3.034285e-05,9.994016e-01
2.800000e-07,2.689464e-04,3.034699e-05,9.994016e-01
3.250000e-07,2.689611e-04,3.035112e-05,9.994015e-01
3.700000e-07,2.689689e-04,3.035525e-05,9.994015e-01
4.150000e-07,2.689738e-04,3.035939e-05,9.994015e-01
4.600000e-07,2.689773e-04,3.036352e-05,9.994015e-01
5.050000e-07,2.689802e-04,3.036766e-05,9.994015e-01
5.500000e-07,2.689828e-04,3.037179e-05,9.994015e-01
5.950000e-07,2.689851e-04,3.037593e-05,9.994015e-01
6.400000e-07,2.689873e-04,3.038006e-05,9.994015e-01
6.850000e-07,2.689894e-04,3.038420e-05,9.994015e-01
7.300000e-07,2.689915e-04,3.038833e-05,9.994015e-01
7.750000e-07,2.689934e-04,3.039247e-05,9.994015e-01
8.200000e-07,2.689953e-04,3.039661e-05,9.994015e-01
8.650000e-07,2.689972e-04,3.040074e-05,9.994015e-01
9.100000e-07,2.689990e-04,3.040488e-05,9.994015e-01
9.550000e-07,2.690008e-04,3.040901e-05,9.994015e-01
1.000000e-06,2.690026e-04,3.041315e-05,9.994015e-01
1.450000e-06,2.690198e-04,3.045451e-05,9.994015e-01
1.900000e-06,2.690366e-04,3.049587e-05,9.994014e-01
2.350000e-06,2.690533e-04,3.053722e-05,9.994014e-01
2.800000e-06,2.690701e-04,3.057858e-05,9.994014e-01
3.250000e-06,2.690869e-04,3.061994e-05,9.994014e-01
3.700000e-06,2.691036e-04,3.066131e-05,9.994014e-01
4.150000e-06,2.691204e-04,3.070267e-05,9.994014e-01
4.600000e-06,2.691371e-04,3.074403e-05,9.994013e-01
5.050000e-06,2.691539e-04,3.078539e-05,9.994013e-01
5.500000e-06,2.691706e-04,3.082675e-05,9.994013e-01
5.950000e-06,2.691874e-04,3.086812e-05,9.994013e-01
6.400000e-06,2.692042e-04,3.090948e-05,9.994013e-01
6.850000e-06,2.692209e-04,3.095085e-05,9.994013e-01
7.300000e-06,2.692377e-04,3.099221e-05,9.994013e-01
7.750000e-06,2.692544e-04,3.103358e-05,9.994012e-01
8.200000e-06,2.692712e-04,3.107494e-05,9.994012e-01
8.650000e-06,2.692879e-04,3.111631e-05,9.994012e-01
9.100000e-06,2.693047e-04,3.115767e-05,9.994012e-01
9.550000e-06,2.693215e-04,3.119904e-05,9.994012e-01
1.000000e-05,2.693382e-04,3.124041e-05,9.994012e-01
1.450000e-05,2.695058e-04,3.165411e-05,9.994010e-01
1.900000e-05,2.696734e-04,3.206787e-05,9.994008e-01
2.350000e-05,2.698409e-04,3.248167e-05,9.994007e-01
2.800000e-05,2.700085e-04,3.289553e-05,9.994005e-01
3.250000e-05,2.701761e-04,3.330943e-05,9.994004e-01
3.700000e-05,2.703436e-04,3.372339e-05,9.994002e-01
4.150000e-05,2.705112e-04,3.413739e-05,9.994001e-01
4.600000e-05,2.706787e-04,3.455145e-05,9.993999e-01
5.050000e-05,2.708463e-04,3.496555e-05,9.993997e-01
5.500000e-05,2.710138e-04,3.537971e-05,9.993996e-01
5.950000e-05,2.711814e-04,3.579391e-05,9.993994e-01
6.400000e-05,2.713489e-04,3.620817e-05,9.993993e-01
6.850000e-05,2.715164e-04,3.662247e-05,9.993991e-01
7.300000e-05,2.716840e-04,3.703682e-05,9.993990e-01
7.750000e-05,2.718515e-04,3.745123e-05,9.993988e-01
8.200000e-05,2.720190e-04,3.786568e-05,9.993986e-01
8.650000e-05,2.721866e-04,3.828018e-05,9.993985e-01
9.100000e-05,2.723541e-04,3.869474e-05,9.993983e-01
9.550000e-05,2.725216e-04,3.910934e-05,9.993982e-01
1.000000e-04,2.726891e-04,3.952399e-05,9.993980e-01
1.450000e-04,2.743640e-04,4.367326e-05,9.993964e-01
1.900000e-04,2.760386e-04,4.782749e-05,9.993948e-01
2.350000e-04,2.777128e-04,5.198670e-05,9.993932e-01
2.800000e-04,2.793867e-04,5.615087e-05,9.993915e-01
3.250000e-04,2.810602e-04,6.032001e-05,9.993899e-01
3.700000e-04,2.827334e-04,6.449409e-05,9.993882e-01
4.150000e-04,2.844062e-04,6.867313e-05,9.993865e-01
4.600000e-04,2.860786e-04,7.285711e-05,9.993848e-01
5.050000e-04,2.877507e-04,7.704602e-05,9.993831e-01
5.500000e-04,2.894224e-04,8.123987e-05,9.993814e-01
5.950000e-04,2.910938e-04,8.543865e-05,9.993797e-01
6.400000e-04,2.927648e-04,8.964235e-05,9.993779e-01
6.850000e-04,2.944354e-04,9.385097e-05,9.993761e-01
7.300000e-04,2.961057e-04,9.806450e-05,9.993744e-01
7.750000e-04,2.977756e-04,1.022829e-04,9.993726e-01
8.200000e-04,2.994452e-04,1.065063e-04,9.993708e-01
8.650000e-04,3.011143e-04,1.107345e-04,9.993690e-01
9.100000e-04,3.027831e-04,1.149676e-04,9.993671e-01
9.550000e-04,3.044515e-04,1.192056e-04,9.993653e-01
1.000000e-03,3.061196e-04,1.234485e-04,9.993635e-01
1.450000e-03,3.227793e-04,1.661448e-04,9.993442e-01
1.900000e-03,3.394005e-04,2.093233e-04,9.993238e-01
2.350000e-03,3.559826e-04,2.529787e-04,9.993020e-01
2.800000e-03,3.725249e-04,2.971058e-04,9.992790e-01
3.250000e-03,3.890271e-04,3.416992e-04,9.992548e-01
3.700000e-03,4.054890e-04,3.867535e-04,9.992295e-01
4.150000e-03,4.219103e-04,4.322631e-04,9.992029e-01
4.600000e-03,4.382912e-04,4.782226e-04,9.991752e-01
5.050000e-03,4.546316e-04,5.246264e-04,9.991463e-01
5.500000e-03,4.709317e-04,5.714690e-04,9.991164e-01
5.950000e-03,4.871916e-04,6.187447e-04,9.990853e-01
6.400000e-03,5.034116e-04,6.664478e-04,9.990531e-01
6.850000e-03,5.195919e-04,7.145728e-04,9.990199e-01
7.300000e-03,5.357330e-04,7.631137e-04,9.989856e-01
7.750000e-03,5.518350e-04,8.120650e-04,9.989503e-01
8.200000e-03,5.678984e-04,8.614207e-04,9.989140e-01
8.650000e-03,5.839236e-04,9.111752e-04,9.988766e-01
9.100000e-03,5.999109e-04,9.613226e-04,9.988383e-01
9.550000e-03,6.158608e-04,1.011857e-03,9.987990e-01
1.000000e-02,6.317738e-04,1.062773e-03,9.987588e-01
1.450000e-02,7.889699e-04,1.591607e-03,9.983072e-01
1.900000e-02,9.429742e-04,2.152165e-03,9.977770e-01
2.350000e-02,1.094226e-03,2.738885e-03,9.971819e-01
2.800000e-02,1.243110e-03,3.346663e-03,9.965342e-01
3.250000e-02,1.389954e-03,3.970982e-03,9.958446e-01
3.700000e-02,1.535026e-03,4.607954e-03,9.951221e-01
4.150000e-02,1.678546e-03,5.254312e-03,9.943742e-01
4.600000e-02,1.820693e-03,5.907352e-03,9.936071e-01
5.050000e-02,1.961608e-03,6.564874e-03,9.928258e-01
5.500000e-02,2.101407e-03,7.225104e-03,9.920344e-01
5.950000e-02,2.240180e-03,7.886628e-03,9.912361e-01
6.400000e-02,2.377999e-03,8.548324e-03,9.904333e-01
6.850000e-02,2.514921e-03,9.209312e-03,9.896283e-01
7.300000e-02,2.650993e-03,9.868899e-03,9.888224e-01
7.750000e-02,2.786249e-03,1.052655e-02,9.880170e-01
8.200000e-02,2.920720e-03,1.118185e-02,9.872130e-01
8.650000e-02,3.054426e-03,1.183447e-02,9.864112e-01
9.100000e-02,3.187388e-03,1.248418e-02,9.856120e-01
9.550000e-02,3.319618e-03,1.313079e-02,9.848161e-01
1.000000e-01,3.451130e-03,1.377415e-02,9.840237e-01
1.450000e-01,4.728151e-03,2.001677e-02,9.763259e-01
1.900000e-01,5.938361e-03,2.590923e-02,9.690616e-01
2.350000e-01,7.084209e-03,3.146691e-02,9.622152e-01
2.800000e-01,8.168128e-03,3.670781e-02,9.557632e-01
3.250000e-01,9.192672e-03,4.164870e-02,9.496840e-01
3.700000e-01,1.016045e-02,4.630521e-02,9.439577e-01
4.150000e-01,1.107405e-02,5.069213e-02,9.385654e-01
4.600000e-01,1.193605e-02,5.482351e-02,9.334896e-01
5.050000e-01,1.274897e-02,5.871278e-02,9.287132e-01
5.500000e-01,1.351524e-02,6.237280e-02,9.242204e-01
5.950000e-01,1.423724e-02,6.581585e-02,9.199958e-01
6.400000e-01,1.491727e-02,6.905367e-02,9.160246e-01
6.850000e-01,1.555752e-02,7.209750e-02,9.122930e-01
7.300000e-01,1.616012e-02,7.495806e-02,9.087875e-01
7.750000e-01,1.672710e-02,7.764558e-02,9.054956e-01
8.200000e-01,1.726041e-02,8.016980e-02,9.024050e-01
8.650000e-01,1.776191e-02,8.254001e-02,8.995044e-01
9.100000e-01,1.823338e-02,8.476502e-02,8.967826e-01
9.550000e-01,1.867650e-02,8.685323e-02,8.942294e-01
1.000000e+00,1.909289e-02,8.881258e-02,8.918349e-01
1.450000e+00,2.208692e-02,1.027960e-01,8.747888e-01
1.900000e+00,2.366867e-02,1.100644e-01,8.659797e-01
2.350000e+00,2.449771e-02,1.138035e-01,8.614797e-01
2.800000e+00,2.493066e-02,1.157142e-01,8.591996e-01
3.250000e+00,2.515645e-02,1.166857e-01,8.580522e-01
3.700000e+00,2.527421e-02,1.171776e-01,8.574785e-01
4.150000e+00,2.533568e-02,1.174255e-01,8.571938e-01
4.600000e+00,2.536780e-02,1.175499e-01,8.570536e-01
5.050000e+00,2.538462e-02,1.176119e-01,8.569854e-01
5.500000e+00,2.539344e-02,1.176426e-01,8.569527e-01
5.950000e+00,2.539808e-02,1.176577e-01,8.569372e-01
6.400000e+00,2.540052e-02,1.176651e-01,8.569301e-01
6.850000e+00,2.540182e-02,1.176686e-01,8.569270e-01
7.300000e+00,2.540250e-02,1.176702e-01,8.569257e-01
7.750000e+00,2.540287e-02,1.176710e-01,8.569252e-01
8.200000e+00,2.540306e-02,1.176713e-01,8.569251e-01
8.650000e+00,2.540317e-02,1.176714e-01,8.569251e-01
9.100000e+00,2.540322e-02,1.176715e-01,8.569251e-01
9.550000e+00,2.540325e-02,1.176715e-01,8.569251e-01
1.000000e+01,2.540327e-02,1.176715e-01,8.569252e-01
1.450000e+01,2.540329e-02,1.176715e-01,8.569253e-01
1.900000e+01,2.540329e-02,1.176715e-01,8.569253e-01
2.350000e+01,2.540329e-02,1.176715e-01,8.569253e-01
2.800000e+01,2.540329e-02,1.176715e-01,8.569253e-01
3.250000e+01,2.540329e-02,1.176715e-01,8.569253e-01
3.700000e+01,2.540329e-02,1.176715e-01,8.569253e-01
4.150000e+01,2.540329e-02,1.176715e-01,8.569253e-01
4.600000e+01,2.540329e-02,1.176715e-01,8.569253e-01
5.000000e+01,2.540329e-02,1.176715e-01,8.569253e-01
