t(s),H2,N2,NH3
1.000000e-15,3.495156e-09,5.741342e-10,1.000000e+00
1.450000e-15,5.067973e-09,8.324887e-10,1.000000e+00
1.900000e-15,6.640788e-09,1.090840e-09,1.000000e+00
2.350000e-15,8.213601e-09,1.349187e-09,1.000000e+00
2.800000e-15,9.786412e-09,1.607531e-09,1.000000e+00
3.250000e-15,1.135922e-08,1.865871e-09,1.000000e+00
3.700000e-15,1.293203e-08,2.124207e-09,1.000000e+00
4.150000e-15,1.450483e-08,2.382540e-09,1.000000e+00
4.600000e-15,1.607763e-08,2.640869e-09,1.000000e+00
5.050000e-15,1.765044e-08,2.899195e-09,1.000000e+00
5.500000e-15,1.922323e-08,3.157517e-09,1.000000e+00
5.950000e-15,2.079603e-08,3.415835e-09,1.000000e+00
6.400000e-15,2.236882e-08,3.674150e-09,1.000000e+00
6.850000e-15,2.394162e-08,3.932461e-09,1.000000e+00
7.300000e-15,2.551441e-08,4.190768e-09,1.000000e+00
7.750000e-15,2.708719e-08,4.449072e-09,1.000000e+00
8.200000e-15,2.865998e-08,4.707373e-09,1.000000e+00
8.650000e-15,3.023276e-08,4.965669e-09,1.000000e+00
9.100000e-15,3.180555e-08,5.223962e-09,1.000000e+00
9.550000e-15,3.337833e-08,5.482252e-09,1.000000e+00
1.000000e-14,3.495110e-08,5.740537e-09,1.000000e+00
1.450000e-14,5.067877e-08,8.323196e-09,9.999999e-01
1.900000e-14,6.640622e-08,1.090549e-08,9.999999e-01
2.350000e-14,8.213346e-08,1.348743e-08,9.999999e-01
2.800000e-14,9.786050e-08,1.606900e-08,9.999999e-01
3.250000e-14,1.135873e-07,1.865021e-08,9.999999e-01
3.700000e-14,1.293139e-07,2.123106e-08,9.999998e-01
4.150000e-14,1.450403e-07,2.381155e-08,9.999998e-01
4.600000e-14,1.607665e-07,2.639168e-08,9.999998e-01
5.050000e-14,1.764925e-07,2.897145e-08,9.999998e-01
5.500000e-14,1.922183e-07,3.155085e-08,9.999998e-01
5.950000e-14,2.079439e-07,3.412989e-08,9.999998e-01
6.400000e-14,2.236692e-07,3.670857e-08,9.999997e-01
6.850000e-14,2.393944e-07,3.928689e-08,9.999997e-01
7.300000e-14,2.551193e-07,4.186485e-08,9.999997e-01
7.750000e-14,2.708440e-07,4.444245e-08,9.999997e-01
8.200000e-14,2.865685e-07,4.701969e-08,9.999997e-01
8.650000e-14,3.022928e-07,4.959656e-08,9.999996e-01
9.100000e-14,3.180169e-07,5.217308e-08,9.999996e-01
9.550000e-14,3.337408e-07,5.474923e-08,9.999996e-01
1.000000e-13,3.494644e-07,5.732502e-08,9.999996e-01
1.450000e-13,5.066894e-07,8.306311e-08,9.999994e-01
1.900000e-13,6.638933e-07,1.087652e-07,9.999992e-01
2.350000e-13,8.210760e-07,1.344312e-07,9.999990e-01
2.800000e-13,9.782376e-07,1.600614e-07,9.999989e-01
3.250000e-13,1.135378e-06,1.856556e-07,9.999987e-01
3.700000e-13,1.292497e-06,2.112140e-07,9.999985e-01
4.150000e-13,1.449596e-06,2.367366e-07,9.999983e-01
4.600000e-13,1.606673e-06,2.622235e-07,9.999981e-01
5.050000e-13,1.763729e-06,2.876747e-07,9.999979e-01
5.500000e-13,1.920764e-06,3.130903e-07,9.999978e-01
5.950000e-13,2.077777e-06,3.384703e-07,9.999976e-01
6.400000e-13,2.234770e-06,3.638147e-07,9.999974e-01
6.850000e-13,2.391742e-06,3.891237e-07,9.999972e-01
7.300000e-13,2.548692e-06,4.143972e-07,9.999970e-01
7.750000e-13,2.705622e-06,4.396353e-07,9.999969e-01
8.200000e-13,2.862530e-06,4.648381e-07,9.999967e-01
8.650000e-13,3.019417e-06,4.900056e-07,9.999965e-01
9.100000e-13,3.176284e-06,5.151379e-07,9.999963e-01
9.550000e-13,3.333129e-06,5.402350e-07,9.999961e-01
1.000000e-12,3.489953e-06,5.652969e-07,9.999959e-01
1.450000e-12,5.057037e-06,8.139945e-07,9.999941e-01
1.900000e-12,6.622019e-06,1.059232e-06,9.999923e-01
2.350000e-12,8.184905e-06,1.301057e-06,9.999905e-01
2.800000e-12,9.745698e-06,1.539518e-06,9.999887e-01
3.250000e-12,1.130440e-05,1.774660e-06,9.999869e-01
3.700000e-12,1.286103e-05,2.006532e-06,9.999851e-01
4.150000e-12,1.441557e-05,2.235176e-06,9.999833e-01
4.600000e-12,1.596804e-05,2.460640e-06,9.999816e-01
5.050000e-12,1.751843e-05,2.682967e-06,9.999798e-01
5.500000e-12,1.906676e-05,2.902200e-06,9.999780e-01
5.950000e-12,2.061303e-05,3.118383e-06,9.999763e-01
6.400000e-12,2.215724e-05,3.331558e-06,9.999745e-01
6.850000e-12,2.369940e-05,3.541767e-06,9.999728e-01
7.300000e-12,2.523951e-05,3.749052e-06,9.999710e-01
7.750000e-12,2.677757e-05,3.953452e-06,9.999693e-01
8.200000e-12,2.831359e-05,4.155008e-06,9.999675e-01
8.650000e-12,2.984758e-05,4.353760e-06,9.999658e-01
9.100000e-12,3.137953e-05,4.549746e-06,9.999641e-01
9.550000e-12,3.290946e-05,4.743006e-06,9.999623e-01
1.000000e-11,3.443736e-05,4.933577e-06,9.999606e-01
1.450000e-11,4.960597e-05,6.699368e-06,9.999437e-01
1.900000e-11,6.457671e-05,8.234295e-06,9.999272e-01
2.350000e-11,7.935356e-05,9.568538e-06,9.999111e-01
2.800000e-11,9.394042e-05,1.072833e-05,9.998953e-01
3.250000e-11,1.083411e-04,1.173648e-05,9.998799e-01
3.700000e-11,1.225591e-04,1.261282e-05,9.998648e-01
4.150000e-11,1.365982e-04,1.337456e-05,9.998500e-01
4.600000e-11,1.504618e-04,1.403670e-05,9.998355e-01
5.050000e-11,1.641533e-04,1.461225e-05,9.998212e-01
5.500000e-11,1.776760e-04,1.511254e-05,9.998072e-01
5.950000e-11,1.910331e-04,1.554739e-05,9.997934e-01
6.400000e-11,2.042277e-04,1.592538e-05,9.997798e-01
6.850000e-11,2.172629e-04,1.625392e-05,9.997665e-01
7.300000e-11,2.301416e-04,1.653949e-05,9.997533e-01
7.750000e-11,2.428667e-04,1.678770e-05,9.997403e-01
8.200000e-11,2.554411e-04,1.700344e-05,9.997276e-01
8.650000e-11,2.678675e-04,1.719095e-05,9.997149e-01
9.100000e-11,2.801486e-04,1.735392e-05,9.997025e-01
9.550000e-11,2.922869e-04,1.749556e-05,9.996902e-01
1.000000e-10,3.042852e-04,1.761866e-05,9.996781e-01
1.450000e-10,4.170786e-04,1.823461e-05,9.995647e-01
1.900000e-10,5.182565e-04,1.838501e-05,9.994634e-01
2.350000e-10,6.095667e-04,1.842084e-05,9.993720e-01
2.800000e-10,6.924167e-04,1.842856e-05,9.992892e-01
3.250000e-10,7.679538e-04,1.842944e-05,9.992136e-01
3.700000e-10,8.371231e-04,1.842872e-05,9.991444e-01
4.150000e-10,9.007110e-04,1.842769e-05,9.990809e-01
4.600000e-10,9.593773e-04,1.842664e-05,9.990222e-01
5.050000e-10,1.013680e-03,1.842565e-05,9.989679e-01
5.500000e-10,1.064095e-03,1.842472e-05,9.989175e-01
5.950000e-10,1.111029e-03,1.842385e-05,9.988705e-01
6.400000e-10,1.154835e-03,1.842304e-05,9.988267e-01
6.850000e-10,1.195817e-03,1.842229e-05,9.987858e-01
7.300000e-10,1.234243e-03,1.842158e-05,9.987473e-01
7.750000e-10,1.270345e-03,1.842092e-05,9.987112e-01
8.200000e-10,1.304329e-03,1.842029e-05,9.986773e-01
8.650000e-10,1.336376e-03,1.841970e-05,9.986452e-01
9.100000e-10,1.366647e-03,1.841914e-05,9.986149e-01
9.550000e-10,1.395286e-03,1.841862e-05,9.985863e-01
1.000000e-09,1.422422e-03,1.841812e-05,9.985592e-01
1.450000e-09,1.631605e-03,1.841427e-05,9.983500e-01
1.900000e-09,1.768299e-03,1.841177e-05,9.982133e-01
2.350000e-09,1.864106e-03,1.841003e-05,9.981175e-01
2.800000e-09,1.934534e-03,1.840875e-05,9.980471e-01
3.250000e-09,1.988114e-03,1.840778e-05,9.979935e-01
3.700000e-09,2.029941e-03,1.840704e-05,9.979517e-01
4.150000e-09,2.063251e-03,1.840645e-05,9.979183e-01
4.600000e-09,2.090203e-03,1.840597e-05,9.978914e-01
5.050000e-09,2.112288e-03,1.840559e-05,9.978693e-01
5.500000e-09,2.130578e-03,1.840528e-05,9.978510e-01
5.950000e-09,2.145857e-03,1.840502e-05,9.978357e-01
6.400000e-09,2.158715e-03,1.840481e-05,9.978229e-01
6.850000e-09,2.169603e-03,1.840463e-05,9.978120e-01
7.300000e-09,2.178874e-03,1.840448e-05,9.978027e-01
7.750000e-09,2.186805e-03,1.840436e-05,9.977948e-01
8.200000e-09,2.193618e-03,1.840426e-05,9.977880e-01
8.650000e-09,2.199493e-03,1.840418e-05,9.977821e-01
9.100000e-09,2.204577e-03,1.840411e-05,9.977770e-01
9.550000e-09,2.208989e-03,1.840405e-05,9.977726e-01
1.000000e-08,2.212830e-03,1.840401e-05,9.977688e-01
1.450000e-08,2.233078e-03,1.840388e-05,9.977485e-01
1.900000e-08,2.239907e-03,1.840401e-05,9.977417e-01
2.350000e-08,2.243289e-03,1.840420e-05,9.977383e-01
2.800000e-08,2.245657e-03,1.840440e-05,9.977359e-01
3.250000e-08,2.247638e-03,1.840462e-05,9.977340e-01
3.700000e-08,2.249404e-03,1.840483e-05,9.977322e-01
4.150000e-08,2.251007e-03,1.840506e-05,9.977306e-01
4.600000e-08,2.252471e-03,1.840528e-05,9.977291e-01
5.050000e-08,2.253811e-03,1.840551e-05,9.977278e-01
5.500000e-08,2.255037e-03,1.840573e-05,9.977266e-01
5.950000e-08,2.256160e-03,1.840596e-05,9.977254e-01
6.400000e-08,2.257188e-03,1.840620e-05,9.977244e-01
6.850000e-08,2.258129e-03,1.840643e-05,9.977235e-01
7.300000e-08,2.258991e-03,1.840666e-05,9.977226e-01
7.750000e-08,2.259780e-03,1.840690e-05,9.977218e-01
8.200000e-08,2.260502e-03,1.840714e-05,9.977211e-01
8.650000e-08,2.261164e-03,1.840738e-05,9.977204e-01
9.100000e-08,2.261770e-03,1.840761e-05,9.977198e-01
9.550000e-08,2.262325e-03,1.840786e-05,9.977193e-01
1.000000e-07,2.262834e-03,1.840810e-05,9.977188e-01
1.450000e-07,2.266075e-03,1.841054e-05,9.977155e-01
1.900000e-07,2.267436e-03,1.841303e-05,9.977142e-01
2.350000e-07,2.268017e-03,1.841553e-05,9.977136e-01
2.800000e-07,2.268275e-03,1.841803e-05,9.977133e-01
3.250000e-07,2.268399e-03,1.842054e-05,9.977132e-01
3.700000e-07,2.268465e-03,1.842304e-05,9.977131e-01
4.150000e-07,2.268506e-03,1.842555e-05,9.977131e-01
4.600000e-07,2.268536e-03,1.842806e-05,9.977130e-01
5.050000e-07,2.268560e-03,1.843057e-05,9.977130e-01
5.500000e-07,2.268582e-03,1.843308e-05,9.977130e-01
5.950000e-07,2.268601e-03,1.843559e-05,9.977130e-01
6.400000e-07,2.268620e-03,1.843810e-05,9.977129e-01
6.850000e-07,2.268637e-03,1.844061e-05,9.977129e-01
7.300000e-07,2.268654e-03,1.844312e-05,9.977129e-01
7.750000e-07,2.268671e-03,1.844563e-05,9.977129e-01
8.200000e-07,2.268687e-03,1.844814e-05,9.977129e-01
8.650000e-07,2.268703e-03,1.845065e-05,9.977128e-01
9.100000e-07,2.268718e-03,1.845316e-05,9.977128e-01
9.550000e-07,2.268733e-03,1.845567e-05,9.977128e-01
1.000000e-06,2.268748e-03,1.845818e-05,9.977128e-01
1.450000e-06,2.268892e-03,1.848327e-05,9.977126e-01
1.900000e-06,2.269034e-03,1.850837e-05,9.977125e-01
2.350000e-06,2.269175e-03,1.853347e-05,9.977123e-01
2.800000e-06,2.269316e-03,1.855857e-05,9.977121e-01
3.250000e-06,2.269457e-03,1.858367e-05,9.977120e-01
3.700000e-06,2.269598e-03,1.860877e-05,9.977118e-01
4.150000e-06,2.269739e-03,1.863387e-05,9.977116e-01
4.600000e-06,2.269880e-03,1.865897e-05,9.977115e-01
5.050000e-06,2.270021e-03,1.868407e-05,9.977113e-01
5.500000e-06,2.270162e-03,1.870917e-05,9.977111e-01
5.950000e-06,2.270303e-03,1.873427e-05,9.977110e-01
6.400000e-06,2.270444e-03,1.875937e-05,9.977108e-01
6.850000e-06,2.270585e-03,1.878448e-05,9.977106e-01
7.300000e-06,2.270726e-03,1.880958e-05,9.977105e-01
7.750000e-06,2.270867e-03,1.883468e-05,9.977103e-01
8.200000e-06,2.271008e-03,1.885978e-05,9.977101e-01
8.650000e-06,2.271149e-03,1.888489e-05,9.977100e-01
9.100000e-06,2.271290e-03,1.890999e-05,9.977098e-01
9.550000e-06,2.271431e-03,1.893509e-05,9.977096e-01
1.000000e-05,2.271572e-03,1.896020e-05,9.977095e-01
1.450000e-05,2.272982e-03,1.921125e-05,9.977078e-01
1.900000e-05,2.274392e-03,1.946233e-05,9.977061e-01
2.350000e-05,2.275801e-03,1.971345e-05,9.977045e-01
2.800000e-05,2.277211e-03,1.996459e-05,9.977028e-01
3.250000e-05,2.278621e-03,2.021576e-05,9.977012e-01
3.700000e-05,2.280031e-03,2.046696e-05,9.976995e-01
4.150000e-05,2.281440e-03,2.071819e-05,9.976978e-01
4.600000e-05,2.282850e-03,2.096945e-05,9.976962e-01
5.050000e-05,2.284260e-03,2.122074e-05,9.976945e-01
5.500000e-05,2.285669e-03,2.147206e-05,9.976929e-01
5.950000e-05,2.287079e-03,2.172341e-05,9.976912e-01
6.400000e-05,2.288488e-03,2.197479e-05,9.976895e-01
6.850000e-05,2.289898e-03,2.222620e-05,9.976879e-01
7.300000e-05,2.291307e-03,2.247764e-05,9.976862e-01
7.750000e-05,2.292717e-03,2.272911e-05,9.976846e-01
8.200000e-05,2.294126e-03,2.298060e-05,9.976829e-01
8.650000e-05,2.295536e-03,2.323213e-05,9.976812e-01
9.100000e-05,2.296945e-03,2.348368e-05,9.976796e-01
9.550000e-05,2.298354e-03,2.373527e-05,9.976779e-01
1.000000e-04,2.299764e-03,2.398688e-05,9.976762e-01
1.450000e-04,2.313854e-03,2.650465e-05,9.976596e-01
1.900000e-04,2.327942e-03,2.902536e-05,9.976430e-01
2.350000e-04,2.342026e-03,3.154901e-05,9.976264e-01
2.800000e-04,2.356107e-03,3.407560e-05,9.976098e-01
3.250000e-04,2.370184e-03,3.660512e-05,9.975932e-01
3.700000e-04,2.384259e-03,3.913757e-05,9.975766e-01
4.150000e-04,2.398329e-03,4.167295e-05,9.975600e-01
4.600000e-04,2.412397e-03,4.421125e-05,9.975434e-01
5.050000e-04,2.426460e-03,4.675248e-05,9.975268e-01
5.500000e-04,2.440521e-03,4.929662e-05,9.975102e-01
5.950000e-04,2.454578e-03,5.184368e-05,9.974936e-01
6.400000e-04,2.468631e-03,5.439365e-05,9.974770e-01
6.850000e-04,2.482682e-03,5.694653e-05,9.974604e-01
7.300000e-04,2.496728e-03,5.950232e-05,9.974438e-01
7.750000e-04,2.510771e-03,6.206101e-05,9.974272e-01
8.200000e-04,2.524811e-03,6.462259e-05,9.974106e-01
8.650000e-04,2.538847e-03,6.718707e-05,9.973940e-01
9.100000e-04,2.552880e-03,6.975445e-05,9.973774e-01
9.550000e-04,2.566909e-03,7.232471e-05,9.973608e-01
1.000000e-03,2.580934e-03,7.489786e-05,9.973442e-01
1.450000e-03,2.720994e-03,1.007874e-04,9.971782e-01
1.900000e-03,2.860692e-03,1.269620e-04,9.970123e-01
2.350000e-03,3.000023e-03,1.534184e-04,9.968466e-01
2.800000e-03,3.138983e-03,1.801534e-04,9.966809e-01
3.250000e-03,3.277569e-03,2.071637e-04,9.965153e-01
3.700000e-03,3.415780e-03,2.344459e-04,9.963498e-01
4.150000e-03,3.553616e-03,2.619968e-04,9.961844e-01
4.600000e-03,3.691076e-03,2.898131e-04,9.960191e-01
5.050000e-03,3.828163e-03,3.178912e-04,9.958539e-01
5.500000e-03,3.964877e-03,3.462279e-04,9.956889e-01
5.950000e-03,4.101221e-03,3.748198e-04,9.955240e-01
6.400000e-03,4.237197e-03,4.036633e-04,9.953591e-01
6.850000e-03,4.372808e-03,4.327550e-04,9.951944e-01
7.300000e-03,4.508058e-03,4.620915e-04,9.950299e-01
7.750000e-03,4.642949e-03,4.916693e-04,9.948654e-01
8.200000e-03,4.777485e-03,5.214848e-04,9.947010e-01
8.650000e-03,4.911671e-03,5.515346e-04,9.945368e-01
9.100000e-03,5.045509e-03,5.818151e-04,9.943727e-01
9.550000e-03,5.179004e-03,6.123228e-04,9.942087e-01
1.000000e-02,5.312161e-03,6.430542e-04,9.940448e-01
1.450000e-02,6.626016e-03,9.618900e-04,9.924121e-01
1.900000e-02,7.910652e-03,1.299229e-03,9.907901e-01
2.350000e-02,9.170043e-03,1.651718e-03,9.891782e-01
2.800000e-02,1.040764e-02,2.016286e-03,9.875761e-01
3.250000e-02,1.162633e-02,2.390219e-03,9.859834e-01
3.700000e-02,1.282848e-02,2.771184e-03,9.844003e-01
4.150000e-02,1.401602e-02,3.157220e-03,9.828268e-01
4.600000e-02,1.519048e-02,3.546707e-03,9.812628e-01
5.050000e-02,1.635311e-02,3.938330e-03,9.797086e-01
5.500000e-02,1.750489e-02,4.331028e-03,9.781641e-01
5.950000e-02,1.864661e-02,4.723957e-03,9.766294e-01
6.400000e-02,1.977889e-02,5.116451e-03,9.751047e-01
6.850000e-02,2.090222e-02,5.507988e-03,9.735898e-01
7.300000e-02,2.201702e-02,5.898158e-03,9.720848e-01
7.750000e-02,2.312360e-02,6.286649e-03,9.705897e-01
8.200000e-02,2.422222e-02,6.673217e-03,9.691046e-01
8.650000e-02,2.531308e-02,7.057678e-03,9.676292e-01
9.100000e-02,2.639635e-02,7.439894e-03,9.661638e-01
9.550000e-02,2.747218e-02,7.819760e-03,9.647081e-01
1.000000e-01,2.854069e-02,8.197202e-03,9.632621e-01
1.450000e-01,3.883980e-02,1.183252e-02,9.493277e-01
1.900000e-01,4.847282e-02,1.521892e-02,9.363083e-01
2.350000e-01,5.748095e-02,1.837318e-02,9.241459e-01
2.800000e-01,6.590292e-02,2.131269e-02,9.127844e-01
3.250000e-01,7.377608e-02,2.405320e-02,9.021707e-01
3.700000e-01,8.113598e-02,2.660898e-02,8.922550e-01
4.150000e-01,8.801615e-02,2.899306e-02,8.829908e-01
4.600000e-01,9.444809e-02,3.121741e-02,8.743345e-01
5.050000e-01,1.004613e-01,3.329308e-02,8.662456e-01
5.500000e-01,1.060833e-01,3.523028e-02,8.586864e-01
5.950000e-01,1.113400e-01,3.703848e-02,8.516216e-01
6.400000e-01,1.162552e-01,3.872644e-02,8.450183e-01
6.850000e-01,1.208516e-01,4.030232e-02,8.388461e-01
7.300000e-01,1.251501e-01,4.177367e-02,8.330762e-01
7.750000e-01,1.291702e-01,4.314753e-02,8.276823e-01
8.200000e-01,1.329301e-01,4.443045e-02,8.226394e-01
8.650000e-01,1.364470e-01,4.562851e-02,8.179245e-01
9.100000e-01,1.397366e-01,4.674740e-02,8.135160e-01
9.550000e-01,1.428140e-01,4.779238e-02,8.093937e-01
1.000000e+00,1.456928e-01,4.876839e-02,8.055388e-01
1.450000e+00,1.660277e-01,5.560570e-02,7.783667e-01
1.900000e+00,1.765085e-01,5.906585e-02,7.644256e-01
2.350000e+00,1.819239e-01,6.081597e-02,7.572601e-01
2.800000e+00,1.847267e-01,6.169931e-02,7.535740e-01
3.250000e+00,1.861792e-01,6.214371e-02,7.516771e-01
3.700000e+00,1.869328e-01,6.236631e-02,7.507009e-01
4.150000e+00,1.873242e-01,6.247720e-02,7.501986e-01
4.600000e+00,1.875278e-01,6.253205e-02,7.499402e-01
5.050000e+00,1.876338e-01,6.255894e-02,7.498073e-01
5.500000e+00,1.876891e-01,6.257197e-02,7.497389e-01
5.950000e+00,1.877180e-01,6.257820e-02,7.497038e-01
6.400000e+00,1.877331e-01,6.258111e-02,7.496858e-01
6.850000e+00,1.877410e-01,6.258243e-02,7.496766e-01
7.300000e+00,1.877452e-01,6.258300e-02,7.496718e-01
7.750000e+00,1.877474e-01,6.258324e-02,7.496694e-01
8.200000e+00,1.877485e-01,6.258332e-02,7.496681e-01
8.650000e+00,1.877491e-01,6.258334e-02,7.496675e-01
9.100000e+00,1.877495e-01,6.258333e-02,7.496672e-01
9.550000e+00,1.877497e-01,6.258332e-02,7.496670e-01
1.000000e+01,1.877497e-01,6.258331e-02,7.496669e-01
1.450000e+01,1.877499e-01,6.258329e-02,7.496669e-01
1.900000e+01,1.877499e-01,6.258329e-02,7.496669e-01
2.350000e+01,1.877499e-01,6.258329e-02,7.496669e-01
2.800000e+01,1.877499e-01,6.258329e-02,7.496669e-01
3.250000e+01,1.877499e-01,6.258329e-02,7.496669e-01
3.700000e+01,1.877499e-01,6.258329e-02,7.496669e-01
4.150000e+01,1.877499e-01,6.258329e-02,7.496669e-01
4.600000e+01,1.877499e-01,6.258329e-02,7.496669e-01
5.000000e+01,1.877499e-01,6.258329e-02,7.496669e-01
