t(s),H2,N2,NH3
1.000000e-15,5.162662e-43,2.343881e-89,1.000000e+00
1.450000e-15,7.232816e-42,2.593185e-88,1.000000e+00
1.900000e-15,2.460975e-41,8.497543e-88,1.000000e+00
2.350000e-15,4.823090e-41,1.652297e-87,1.000000e+00
2.800000e-15,7.809626e-41,2.666946e-87,1.000000e+00
3.250000e-15,1.354637e-40,4.952085e-87,1.000000e+00
3.700000e-15,2.209265e-40,8.784754e-87,1.000000e+00
4.150000e-15,3.654697e-40,1.801372e-86,1.000000e+00
4.600000e-15,5.738102e-40,3.491617e-86,1.000000e+00
5.050000e-15,8.828530e-40,6.822589e-86,1.000000e+00
5.500000e-15,1.326530e-39,1.483512e-85,1.000000e+00
5.950000e-15,1.957283e-39,3.123091e-85,1.000000e+00
6.400000e-15,2.770726e-39,5.570039e-85,1.000000e+00
6.850000e-15,3.813900e-39,9.532430e-85,1.000000e+00
7.300000e-15,5.209254e-39,1.709974e-84,1.000000e+00
7.750000e-15,6.950284e-39,2.799909e-84,1.000000e+00
8.200000e-15,9.079729e-39,4.295514e-84,1.000000e+00
8.650000e-15,1.179191e-38,7.128476e-84,1.000000e+00
9.100000e-15,1.509532e-38,1.117706e-83,1.000000e+00
9.550000e-15,1.905917e-38,1.666390e-83,1.000000e+00
1.000000e-14,2.386756e-38,2.548609e-83,1.000000e+00
1.450000e-14,1.526323e-37,1.277718e-81,1.000000e+00
1.900000e-14,6.027892e-37,2.277624e-80,1.000000e+00
2.350000e-14,1.736256e-36,1.544825e-79,1.000000e+00
2.800000e-14,4.114526e-36,7.498955e-79,1.000000e+00
3.250000e-14,8.533010e-36,2.939040e-78,1.000000e+00
3.700000e-14,1.611848e-35,9.703403e-78,1.000000e+00
4.150000e-14,2.839190e-35,2.842840e-77,1.000000e+00
4.600000e-14,4.727794e-35,7.573938e-77,1.000001e+00
5.050000e-14,7.515748e-35,1.866841e-76,1.000001e+00
5.500000e-14,1.149134e-34,4.296511e-76,1.000001e+00
5.950000e-14,1.700345e-34,9.706877e-76,1.000001e+00
6.400000e-14,2.445854e-34,2.058635e-75,1.000001e+00
6.850000e-14,3.431739e-34,4.045075e-75,1.000001e+00
7.300000e-14,4.713975e-34,7.774629e-75,1.000001e+00
7.750000e-14,6.350215e-34,1.382250e-74,1.000001e+00
8.200000e-14,8.413520e-34,2.435515e-74,1.000001e+00
8.650000e-14,1.097834e-33,4.095235e-74,1.000001e+00
9.100000e-14,1.413152e-33,6.712025e-74,1.000001e+00
9.550000e-14,1.797018e-33,1.077508e-73,1.000001e+00
1.000000e-13,2.259748e-33,1.681858e-73,1.000001e+00
1.450000e-13,1.436491e-32,7.220918e-72,1.000002e+00
1.900000e-13,5.498997e-32,1.015395e-70,1.000002e+00
2.350000e-13,1.577408e-31,8.245565e-70,1.000002e+00
2.800000e-13,3.755845e-31,4.776506e-69,1.000003e+00
3.250000e-13,7.845178e-31,2.083048e-68,1.000003e+00
3.700000e-13,1.487521e-30,7.491908e-68,1.000004e+00
4.150000e-13,2.618067e-30,2.323339e-67,1.000004e+00
4.600000e-13,4.343627e-30,6.460101e-67,1.000005e+00
5.050000e-13,6.868673e-30,1.638248e-66,1.000005e+00
5.500000e-13,1.043739e-29,3.826112e-66,1.000005e+00
5.950000e-13,1.533643e-29,8.326618e-66,1.000006e+00
6.400000e-13,2.189787e-29,1.709553e-65,1.000006e+00
6.850000e-13,3.050192e-29,3.341416e-65,1.000007e+00
7.300000e-13,4.157885e-29,6.280403e-65,1.000007e+00
7.750000e-13,5.561138e-29,1.136153e-64,1.000007e+00
8.200000e-13,7.313660e-29,1.985781e-64,1.000008e+00
8.650000e-13,9.474774e-29,3.364038e-64,1.000008e+00
9.100000e-13,1.210955e-28,5.547462e-64,1.000009e+00
9.550000e-13,1.528903e-28,8.931420e-64,1.000009e+00
1.000000e-12,1.909032e-28,1.406886e-63,1.000009e+00
1.450000e-12,1.128825e-27,5.497857e-62,1.000013e+00
1.900000e-12,4.030580e-27,7.794964e-61,1.000015e+00
2.350000e-12,1.080352e-26,6.220525e-60,1.000018e+00
2.800000e-12,2.406767e-26,3.421279e-59,1.000020e+00
3.250000e-12,4.712466e-26,1.449736e-58,1.000021e+00
3.700000e-12,8.390263e-26,5.065892e-58,1.000023e+00
4.150000e-12,1.388895e-25,1.526231e-57,1.000024e+00
4.600000e-12,2.170627e-25,4.088125e-57,1.000025e+00
5.050000e-12,3.238204e-25,9.953234e-57,1.000026e+00
5.500000e-12,4.649172e-25,2.239096e-56,1.000027e+00
5.950000e-12,6.464058e-25,4.712982e-56,1.000028e+00
6.400000e-12,8.745853e-25,9.373094e-56,1.000028e+00
6.850000e-12,1.155956e-24,1.775075e-55,1.000029e+00
7.300000e-12,1.497181e-24,3.221306e-55,1.000029e+00
7.750000e-12,1.905054e-24,5.630818e-55,1.000030e+00
8.200000e-12,2.386471e-24,9.521311e-55,1.000030e+00
8.650000e-12,2.948406e-24,1.563040e-54,1.000030e+00
9.100000e-12,3.597897e-24,2.498703e-54,1.000030e+00
9.550000e-12,4.342026e-24,3.899974e-54,1.000031e+00
1.000000e-11,5.187910e-24,5.956420e-54,1.000031e+00
1.450000e-11,2.081801e-23,1.736900e-52,1.000031e+00
1.900000e-11,5.449489e-23,1.917060e-51,1.000032e+00
2.350000e-11,1.133397e-22,1.227757e-50,1.000032e+00
2.800000e-11,2.044489e-22,5.558741e-50,1.000032e+00
3.250000e-11,3.349199e-22,1.980450e-49,1.000032e+00
3.700000e-11,5.118611e-22,5.921993e-49,1.000032e+00
4.150000e-11,7.423965e-22,1.549529e-48,1.000032e+00
4.600000e-11,1.033666e-21,3.650337e-48,1.000032e+00
5.050000e-11,1.392825e-21,7.901030e-48,1.000032e+00
5.500000e-11,1.827046e-21,1.594992e-47,1.000032e+00
5.950000e-11,2.343519e-21,3.037208e-47,1.000032e+00
6.400000e-11,2.949448e-21,5.503658e-47,1.000032e+00
6.850000e-11,3.652055e-21,9.556910e-47,1.000032e+00
7.300000e-11,4.458578e-21,1.599211e-46,1.000032e+00
7.750000e-11,5.376271e-21,2.590580e-46,1.000032e+00
8.200000e-11,6.412404e-21,4.078257e-46,1.000032e+00
8.650000e-11,7.574265e-21,6.259242e-46,1.000032e+00
9.100000e-11,8.869157e-21,9.389178e-46,1.000032e+00
9.550000e-11,1.030440e-20,1.379585e-45,1.000032e+00
1.000000e-10,1.188733e-20,1.990017e-45,1.000032e+00
1.450000e-10,3.746602e-20,3.925173e-44,1.000032e+00
1.900000e-10,8.600753e-20,3.196630e-43,1.000032e+00
2.350000e-10,1.651225e-19,1.666794e-42,1.000032e+00
2.800000e-10,2.825795e-19,6.231119e-42,1.000032e+00
3.250000e-10,4.462991e-19,1.865349e-41,1.000032e+00
3.700000e-10,6.643775e-19,4.849836e-41,1.000032e+00
4.150000e-10,9.451011e-19,1.148052e-40,1.000032e+00
4.600000e-10,1.296843e-18,2.437940e-40,1.000032e+00
5.050000e-10,1.728169e-18,4.777065e-40,1.000032e+00
5.500000e-10,2.247814e-18,8.850514e-40,1.000032e+00
5.950000e-10,2.864636e-18,1.552568e-39,1.000032e+00
6.400000e-10,3.587710e-18,2.616583e-39,1.000032e+00
6.850000e-10,4.426246e-18,4.256998e-39,1.000032e+00
7.300000e-10,5.389624e-18,6.709820e-39,1.000032e+00
7.750000e-10,6.487367e-18,1.029679e-38,1.000032e+00
8.200000e-10,7.729160e-18,1.541417e-38,1.000032e+00
8.650000e-10,9.124834e-18,2.256990e-38,1.000032e+00
9.100000e-10,1.068438e-17,3.241201e-38,1.000032e+00
9.550000e-10,1.241795e-17,4.579298e-38,1.000032e+00
1.000000e-09,1.433583e-17,6.385232e-38,1.000032e+00
1.450000e-09,4.602681e-17,8.853227e-37,1.000032e+00
1.900000e-09,1.085987e-16,5.799316e-36,1.000032e+00
2.350000e-09,2.147907e-16,2.521512e-35,1.000032e+00
2.800000e-09,3.787334e-16,8.390888e-35,1.000032e+00
3.250000e-09,6.158743e-16,2.315759e-34,1.000032e+00
3.700000e-09,9.429022e-16,5.569561e-34,1.000032e+00
4.150000e-09,1.377673e-15,1.205130e-33,1.000032e+00
4.600000e-09,1.939132e-15,2.398043e-33,1.000032e+00
5.050000e-09,2.647247e-15,4.458271e-33,1.000032e+00
5.500000e-09,3.522933e-15,7.835547e-33,1.000032e+00
5.950000e-09,4.587985e-15,1.313552e-32,1.000032e+00
6.400000e-09,5.865017e-15,2.115097e-32,1.000032e+00
6.850000e-09,7.377396e-15,3.289476e-32,1.000032e+00
7.300000e-09,9.149188e-15,4.963434e-32,1.000032e+00
7.750000e-09,1.120510e-14,7.292752e-32,1.000032e+00
8.200000e-09,1.357044e-14,1.046591e-31,1.000032e+00
8.650000e-09,1.627103e-14,1.470785e-31,1.000032e+00
9.100000e-09,1.933323e-14,2.028371e-31,1.000032e+00
9.550000e-09,2.278383e-14,2.750267e-31,1.000032e+00
1.000000e-08,2.665004e-14,3.672170e-31,1.000032e+00
1.450000e-08,9.439046e-14,3.590218e-30,1.000032e+00
1.900000e-08,2.356062e-13,1.765130e-29,1.000032e+00
2.350000e-08,4.805470e-13,5.912192e-29,1.000032e+00
2.800000e-08,8.596547e-13,1.552691e-28,1.000033e+00
3.250000e-08,1.402938e-12,3.450834e-28,1.000033e+00
3.700000e-08,2.139591e-12,6.794851e-28,1.000033e+00
4.150000e-08,3.097728e-12,1.220976e-27,1.000033e+00
4.600000e-08,4.304186e-12,2.042946e-27,1.000033e+00
5.050000e-08,5.784395e-12,3.228786e-27,1.000033e+00
5.500000e-08,7.562277e-12,4.870911e-27,1.000033e+00
5.950000e-08,9.660201e-12,7.069763e-27,1.000034e+00
6.400000e-08,1.209896e-11,9.932842e-27,1.000034e+00
6.850000e-08,1.489780e-11,1.357378e-26,1.000034e+00
7.300000e-08,1.807442e-11,1.811152e-26,1.000034e+00
7.750000e-08,2.164505e-11,2.366949e-26,1.000034e+00
8.200000e-08,2.562452e-11,3.037498e-26,1.000034e+00
8.650000e-08,3.002630e-11,3.835850e-26,1.000034e+00
9.100000e-08,3.486261e-11,4.775323e-26,1.000035e+00
9.550000e-08,4.014450e-11,5.869460e-26,1.000035e+00
1.000000e-07,4.588190e-11,7.131983e-26,1.000035e+00
1.450000e-07,1.298711e-10,3.211288e-25,1.000036e+00
1.900000e-07,2.649813e-10,8.954844e-25,1.000038e+00
2.350000e-07,4.527250e-10,1.937224e-24,1.000039e+00
2.800000e-07,6.934045e-10,3.588483e-24,1.000041e+00
3.250000e-07,9.870314e-10,5.991026e-24,1.000042e+00
3.700000e-07,1.333572e-09,9.286623e-24,1.000044e+00
4.150000e-07,1.732997e-09,1.361722e-23,1.000045e+00
4.600000e-07,2.185283e-09,1.912502e-23,1.000046e+00
5.050000e-07,2.690412e-09,2.595249e-23,1.000048e+00
5.500000e-07,3.248368e-09,3.424237e-23,1.000049e+00
5.950000e-07,3.859134e-09,4.413770e-23,1.000051e+00
6.400000e-07,4.522697e-09,5.578180e-23,1.000052e+00
6.850000e-07,5.239039e-09,6.931826e-23,1.000054e+00
7.300000e-07,6.008147e-09,8.489097e-23,1.000055e+00
7.750000e-07,6.830006e-09,1.026441e-22,1.000056e+00
8.200000e-07,7.704599e-09,1.227221e-22,1.000058e+00
8.650000e-07,8.631911e-09,1.452697e-22,1.000059e+00
9.100000e-07,9.611928e-09,1.704319e-22,1.000061e+00
9.550000e-07,1.064463e-08,1.983541e-22,1.000062e+00
1.000000e-06,1.173001e-08,2.291818e-22,1.000064e+00
1.450000e-06,2.547741e-08,7.294960e-22,1.000078e+00
1.900000e-06,4.447489e-08,1.682630e-21,1.000092e+00
2.350000e-06,6.870640e-08,3.238886e-21,1.000106e+00
2.800000e-06,9.815552e-08,5.551436e-21,1.000120e+00
3.250000e-06,1.328055e-07,8.776324e-21,1.000134e+00
3.700000e-06,1.726392e-07,1.307248e-20,1.000148e+00
4.150000e-06,2.176391e-07,1.860173e-20,1.000162e+00
4.600000e-06,2.677875e-07,2.552880e-20,1.000176e+00
5.050000e-06,3.230663e-07,3.402132e-20,1.000190e+00
5.500000e-06,3.834571e-07,4.424984e-20,1.000204e+00
5.950000e-06,4.489411e-07,5.638784e-20,1.000217e+00
6.400000e-06,5.194994e-07,7.061173e-20,1.000231e+00
6.850000e-06,5.951127e-07,8.710085e-20,1.000245e+00
7.300000e-06,6.757615e-07,1.060375e-19,1.000258e+00
7.750000e-06,7.614260e-07,1.276069e-19,1.000272e+00
8.200000e-06,8.520860e-07,1.519973e-19,1.000285e+00
8.650000e-06,9.477214e-07,1.793999e-19,1.000299e+00
9.100000e-06,1.048311e-06,2.100087e-19,1.000312e+00
9.550000e-06,1.153836e-06,2.440210e-19,1.000325e+00
1.000000e-05,1.264273e-06,2.816369e-19,1.000338e+00
1.450000e-05,2.634106e-06,9.021626e-19,1.000468e+00
1.900000e-05,4.470842e-06,2.125554e-18,1.000593e+00
2.350000e-05,6.751062e-06,4.202002e-18,1.000713e+00
2.800000e-05,9.450652e-06,7.412546e-18,1.000830e+00
3.250000e-05,1.254530e-05,1.206934e-17,1.000942e+00
3.700000e-05,1.601090e-05,1.851586e-17,1.001051e+00
4.150000e-05,1.982382e-05,2.712699e-17,1.001156e+00
4.600000e-05,2.396119e-05,3.830910e-17,1.001258e+00
5.050000e-05,2.840097e-05,5.250006e-17,1.001357e+00
5.500000e-05,3.312217e-05,7.016922e-17,1.001453e+00
5.950000e-05,3.810481e-05,9.181739e-17,1.001547e+00
6.400000e-05,4.333000e-05,1.179768e-16,1.001638e+00
6.850000e-05,4.877998e-05,1.492108e-16,1.001726e+00
7.300000e-05,5.443804e-05,1.861144e-16,1.001812e+00
7.750000e-05,6.028851e-05,2.293135e-16,1.001896e+00
8.200000e-05,6.631678e-05,2.794652e-16,1.001979e+00
8.650000e-05,7.250917e-05,3.372575e-16,1.002059e+00
9.100000e-05,7.885295e-05,4.034098e-16,1.002137e+00
9.550000e-05,8.533625e-05,4.786719e-16,1.002213e+00
1.000000e-04,9.194803e-05,5.638250e-16,1.002288e+00
1.450000e-04,1.631927e-04,2.153199e-15,1.002961e+00
1.900000e-04,2.395215e-04,5.819502e-15,1.003529e+00
2.350000e-04,3.173675e-04,1.285377e-14,1.004025e+00
2.800000e-04,3.949573e-04,2.486275e-14,1.004468e+00
3.250000e-04,4.713938e-04,4.377811e-14,1.004869e+00
3.700000e-04,5.462282e-04,7.186754e-14,1.005238e+00
4.150000e-04,6.192498e-04,1.117469e-13,1.005579e+00
4.600000e-04,6.903783e-04,1.663932e-13,1.005899e+00
5.050000e-04,7.596064e-04,2.391575e-13,1.006199e+00
5.500000e-04,8.269673e-04,3.337787e-13,1.006482e+00
5.950000e-04,8.925164e-04,4.543970e-13,1.006751e+00
6.400000e-04,9.563204e-04,6.055678e-13,1.007007e+00
6.850000e-04,1.018453e-03,7.922751e-13,1.007251e+00
7.300000e-04,1.079023e-03,1.019960e-12,1.007485e+00
7.750000e-04,1.138065e-03,1.294518e-12,1.007710e+00
8.200000e-04,1.195650e-03,1.622306e-12,1.007927e+00
8.650000e-04,1.251845e-03,2.010162e-12,1.008136e+00
9.100000e-04,1.306714e-03,2.465421e-12,1.008337e+00
9.550000e-04,1.360317e-03,2.995926e-12,1.008532e+00
1.000000e-03,1.412711e-03,3.610047e-12,1.008721e+00
1.450000e-03,1.880476e-03,1.659212e-11,1.010350e+00
1.900000e-03,2.270155e-03,5.153930e-11,1.011654e+00
2.350000e-03,2.604481e-03,1.275249e-10,1.012748e+00
2.800000e-03,2.897391e-03,2.717150e-10,1.013696e+00
3.250000e-03,3.158068e-03,5.206095e-10,1.014532e+00
3.700000e-03,3.392897e-03,9.212472e-10,1.015282e+00
4.150000e-03,3.606513e-03,1.532377e-09,1.015962e+00
4.600000e-03,3.802389e-03,2.425600e-09,1.016585e+00
5.050000e-03,3.983201e-03,3.686472e-09,1.017159e+00
5.500000e-03,4.151057e-03,5.415592e-09,1.017692e+00
5.950000e-03,4.307648e-03,7.729649e-09,1.018189e+00
6.400000e-03,4.454350e-03,1.076245e-08,1.018655e+00
6.850000e-03,4.592302e-03,1.466592e-08,1.019094e+00
7.300000e-03,4.722455e-03,1.961107e-08,1.019507e+00
7.750000e-03,4.845612e-03,2.578896e-08,1.019899e+00
8.200000e-03,4.962458e-03,3.341165e-08,1.020271e+00
8.650000e-03,5.073582e-03,4.271305e-08,1.020625e+00
9.100000e-03,5.179494e-03,5.394987e-08,1.020963e+00
9.550000e-03,5.280638e-03,6.740245e-08,1.021286e+00
1.000000e-02,5.377403e-03,8.337563e-08,1.021595e+00
1.450000e-02,6.164310e-03,4.679247e-07,1.024121e+00
1.900000e-02,6.736728e-03,1.651485e-06,1.025971e+00
2.350000e-02,7.181634e-03,4.457556e-06,1.027415e+00
2.800000e-02,7.541937e-03,1.009780e-05,1.028582e+00
3.250000e-02,7.841997e-03,2.021274e-05,1.029548e+00
3.700000e-02,8.096988e-03,3.689173e-05,1.030355e+00
4.150000e-02,8.317019e-03,6.266507e-05,1.031030e+00
4.600000e-02,8.509176e-03,1.004586e-04,1.031591e+00
5.050000e-02,8.678636e-03,1.535016e-04,1.032048e+00
5.500000e-02,8.829312e-03,2.251809e-04,1.032406e+00
5.950000e-02,8.964247e-03,3.188437e-04,1.032670e+00
6.400000e-02,9.085873e-03,4.375598e-04,1.032840e+00
6.850000e-02,9.196178e-03,5.838720e-04,1.032919e+00
7.300000e-02,9.296819e-03,7.595693e-04,1.032908e+00
7.750000e-02,9.389201e-03,9.655248e-04,1.032810e+00
8.200000e-02,9.474533e-03,1.201629e-03,1.032629e+00
8.650000e-02,9.553858e-03,1.466829e-03,1.032372e+00
9.100000e-02,9.628082e-03,1.759266e-03,1.032043e+00
9.550000e-02,9.697991e-03,2.076476e-03,1.031652e+00
1.000000e-01,9.764262e-03,2.415622e-03,1.031205e+00
1.450000e-01,1.031840e-02,6.437306e-03,1.025135e+00
1.900000e-01,1.079516e-02,1.064293e-02,1.018442e+00
2.350000e-01,1.123825e-02,1.465749e-02,1.012012e+00
2.800000e-01,1.165379e-02,1.845163e-02,1.005922e+00
3.250000e-01,1.204386e-02,2.203385e-02,1.000164e+00
3.700000e-01,1.241004e-02,2.541571e-02,9.947183e-01
4.150000e-01,1.275377e-02,2.860848e-02,9.895694e-01
4.600000e-01,1.307643e-02,3.162285e-02,9.847005e-01
5.050000e-01,1.337929e-02,3.446886e-02,9.800962e-01
5.500000e-01,1.366356e-02,3.715602e-02,9.757421e-01
5.950000e-01,1.393035e-02,3.969328e-02,9.716243e-01
6.400000e-01,1.418075e-02,4.208909e-02,9.677299e-01
6.850000e-01,1.441575e-02,4.435142e-02,9.640466e-01
7.300000e-01,1.463628e-02,4.648779e-02,9.605628e-01
7.750000e-01,1.484323e-02,4.850528e-02,9.572675e-01
8.200000e-01,1.503743e-02,5.041058e-02,9.541505e-01
8.650000e-01,1.521966e-02,5.221001e-02,9.512019e-01
9.100000e-01,1.539065e-02,5.390951e-02,9.484126e-01
9.550000e-01,1.555109e-02,5.551469e-02,9.457738e-01
1.000000e+00,1.570162e-02,5.703084e-02,9.432773e-01
1.450000e+00,1.677890e-02,6.826667e-02,9.246232e-01
1.900000e+00,1.734599e-02,7.464361e-02,9.138592e-01
2.350000e+00,1.764296e-02,7.827655e-02,9.076230e-01
2.800000e+00,1.779739e-02,8.035352e-02,9.039969e-01
3.250000e+00,1.787699e-02,8.154484e-02,9.018814e-01
3.700000e+00,1.791752e-02,8.223027e-02,9.006435e-01
4.150000e+00,1.793785e-02,8.262578e-02,8.999170e-01
4.600000e+00,1.794783e-02,8.285466e-02,8.994896e-01
5.050000e+00,1.795258e-02,8.298746e-02,8.992375e-01
5.500000e+00,1.795475e-02,8.306473e-02,8.990885e-01
5.950000e+00,1.795567e-02,8.310980e-02,8.990002e-01
6.400000e+00,1.795600e-02,8.313616e-02,8.989478e-01
6.850000e+00,1.795609e-02,8.315162e-02,8.989166e-01
7.300000e+00,1.795607e-02,8.316070e-02,8.988980e-01
7.750000e+00,1.795602e-02,8.316606e-02,8.988869e-01
8.200000e+00,1.795597e-02,8.316922e-02,8.988803e-01
8.650000e+00,1.795593e-02,8.317109e-02,8.988763e-01
9.100000e+00,1.795590e-02,8.317219e-02,8.988739e-01
9.550000e+00,1.795588e-02,8.317285e-02,8.988725e-01
1.000000e+01,1.795586e-02,8.317325e-02,8.988716e-01
1.450000e+01,1.795583e-02,8.317382e-02,8.988703e-01
1.900000e+01,1.795583e-02,8.317383e-02,8.988703e-01
2.350000e+01,1.795583e-02,8.317383e-02,8.988703e-01
2.800000e+01,1.795583e-02,8.317383e-02,8.988703e-01
3.250000e+01,1.795583e-02,8.317383e-02,8.988703e-01
3.700000e+01,1.795583e-02,8.317383e-02,8.988703e-01
4.150000e+01,1.795583e-02,8.317383e-02,8.988703e-01
4.600000e+01,1.795583e-02,8.317383e-02,8.988703e-01
5.000000e+01,1.795583e-02,8.317383e-02,8.988703e-01
